time,x_pos,y_pos,velocity,rotation
0,0,0,0,0
0.0243313,4e-06,-0.000592,0.0486627,0
0.0483346,3.2e-05,-0.002336,0.0966693,0
0.0720087,0.000108,-0.005184,0.144017,0
0.0953523,0.000256,-0.009088,0.190705,0
0.118364,0.0005,-0.014,0.236729,0
0.141044,0.000864,-0.019872,0.282088,0
0.16339,0.001372,-0.026656,0.326781,0
0.185403,0.002048,-0.034304,0.370806,0
0.207081,0.002916,-0.042768,0.414162,0
0.228425,0.004,-0.052,0.45685,0
0.249435,0.005324,-0.061952,0.498869,0
0.270111,0.006912,-0.072576,0.540221,0
0.290453,0.008788,-0.083824,0.580907,0
0.310464,0.010976,-0.095648,0.620928,0
0.330144,0.0135,-0.108,0.660288,0
0.349496,0.016384,-0.120832,0.698991,0
0.368521,0.019652,-0.134096,0.737042,0
0.387224,0.023328,-0.147744,0.774448,0
0.405607,0.027436,-0.161728,0.811214,0
0.423676,0.032,-0.176,0.847351,0
0.441435,0.037044,-0.190512,0.88287,0
0.458891,0.042592,-0.205216,0.917781,0
0.47605,0.048668,-0.220064,0.9521,0
0.492921,0.055296,-0.235008,0.985843,0
0.509514,0.0625,-0.25,1.01903,0
0.525838,0.070304,-0.264992,1.05168,0
0.541907,0.078732,-0.279936,1.08381,0
0.557732,0.087808,-0.294784,1.11546,0
0.57333,0.097556,-0.309488,1.14666,0
0.588716,0.108,-0.324,1.17743,0
0.603909,0.119164,-0.338272,1.20782,0
0.618929,0.131072,-0.352256,1.23786,0
0.633798,0.143748,-0.365904,1.2676,0
0.648539,0.157216,-0.379168,1.29708,0
0.663177,0.1715,-0.392,1.32635,0
0.67774,0.186624,-0.404352,1.35548,0
0.692255,0.202612,-0.416176,1.38451,0
0.706751,0.219488,-0.427424,1.4135,0
0.72126,0.237276,-0.438048,1.44252,0
0.735813,0.256,-0.448,1.47163,0
0.750442,0.275684,-0.457232,1.50088,0
0.765177,0.296352,-0.465696,1.53035,0
0.780053,0.318028,-0.473344,1.56011,0
0.795099,0.340736,-0.480128,1.5902,0
0.810346,0.3645,-0.486,1.62069,0
0.825824,0.389344,-0.490912,1.65165,0
0.841561,0.415292,-0.494816,1.68312,0
0.857584,0.442368,-0.497664,1.71517,0
0.873918,0.470596,-0.499408,1.74784,0
0.890586,0.5,-0.5,1.78117,0
0.903674,0.523483,-0.5,1.80735,0
0.916525,0.546875,-0.5,1.83305,0
0.929149,0.570175,-0.5,1.8583,0
0.941555,0.593383,-0.5,1.88311,0
0.953753,0.616501,-0.5,1.90751,0
0.965749,0.639529,-0.5,1.9315,0
0.977553,0.662466,-0.5,1.95511,0
0.98917,0.685313,-0.5,1.97834,0
1.00061,0.708072,-0.5,2.00121,0
1.01187,0.730741,-0.5,2.02374,0
1.02297,0.753321,-0.5,2.04594,0
1.0339,0.775814,-0.5,2.06781,0
1.04468,0.798218,-0.5,2.08936,0
1.05531,0.820535,-0.5,2.11062,0
1.06579,0.842764,-0.5,2.13158,0
1.07613,0.864907,-0.5,2.15225,0
1.08633,0.886963,-0.5,2.17265,0
1.09639,0.908933,-0.5,2.19279,0
1.10633,0.930817,-0.5,2.21266,0
1.11614,0.952616,-0.5,2.23227,0
1.12582,0.97433,-0.5,2.25164,0
1.13539,0.995959,-0.5,2.27077,0
1.14484,1.0175,-0.5,2.28967,0
1.15417,1.03897,-0.5,2.30834,0
1.16339,1.06034,-0.5,2.32679,0
1.17251,1.08164,-0.5,2.34502,0
1.18152,1.10285,-0.5,2.36304,0
1.19043,1.12398,-0.5,2.38086,0
1.19924,1.14502,-0.5,2.39847,0
1.20795,1.16599,-0.5,2.41589,0
1.21656,1.18687,-0.5,2.43312,0
1.22508,1.20767,-0.5,2.45016,0
1.23351,1.2284,-0.5,2.46701,0
1.24185,1.24904,-0.5,2.48369,0
1.2501,1.2696,-0.5,2.50019,0
1.25826,1.29008,-0.5,2.51652,0
1.26634,1.31048,-0.5,2.53269,0
1.27434,1.33081,-0.5,2.54869,0
1.28226,1.35105,-0.5,2.56452,0
1.2901,1.37122,-0.5,2.5802,0
1.29786,1.39131,-0.5,2.59573,0
1.30555,1.41132,-0.5,2.6111,0
1.31316,1.43125,-0.5,2.62633,0
1.3207,1.45111,-0.5,2.64141,0
1.32817,1.47089,-0.5,2.65634,0
1.33557,1.4906,-0.5,2.67114,0
1.3429,1.51023,-0.5,2.68579,0
1.35016,1.52978,-0.5,2.70032,0
1.35735,1.54926,-0.5,2.71471,0
1.36448,1.56867,-0.5,2.72896,0
1.37155,1.588,-0.5,2.7431,0
1.37855,1.60726,-0.5,2.7571,0
1.38549,1.62644,-0.5,2.77098,0
1.39237,1.64555,-0.5,2.78474,0
1.39919,1.66459,-0.5,2.79838,0
1.40595,1.68356,-0.5,2.8119,0
1.41265,1.70245,-0.5,2.82531,0
1.4193,1.72127,-0.5,2.8386,0
1.42589,1.74002,-0.5,2.85178,0
1.43243,1.7587,-0.5,2.86485,0
1.43891,1.77731,-0.5,2.87781,0
1.44533,1.79585,-0.5,2.89067,0
1.45171,1.81432,-0.5,2.90342,0
1.45803,1.83272,-0.5,2.91607,0
1.46431,1.85105,-0.5,2.92861,0
1.47053,1.86931,-0.5,2.94106,0
1.4767,1.8875,-0.5,2.9534,0
1.48283,1.90563,-0.5,2.96565,0
1.4889,1.92369,-0.5,2.9778,0
1.49493,1.94168,-0.5,2.98986,0
1.50091,1.9596,-0.5,3.00183,0
1.50685,1.97746,-0.5,3.0137,0
1.51274,1.99525,-0.5,3.02549,0
1.51859,2.01297,-0.5,3.03718,0
1.52439,2.03063,-0.5,3.04879,0
1.53015,2.04823,-0.5,3.06031,0
1.53587,2.06576,-0.5,3.07174,0
1.54155,2.08322,-0.5,3.08309,0
1.54718,2.10062,-0.5,3.09436,0
1.55277,2.11796,-0.5,3.10555,0
1.55833,2.13523,-0.5,3.11665,0
1.56384,2.15245,-0.5,3.12768,0
1.56931,2.16959,-0.5,3.13862,0
1.57475,2.18668,-0.5,3.14949,0
1.58014,2.2037,-0.5,3.16028,0
1.5855,2.22067,-0.5,3.171,0
1.59082,2.23757,-0.5,3.18164,0
1.59611,2.25441,-0.5,3.19221,0
1.60135,2.27119,-0.5,3.20271,0
1.60657,2.28791,-0.5,3.21313,0
1.61174,2.30457,-0.5,3.22349,0
1.61688,2.32117,-0.5,3.23377,0
1.62199,2.33771,-0.5,3.24398,0
1.62707,2.3542,-0.5,3.25413,0
1.63211,2.37062,-0.5,3.26421,0
1.63711,2.38699,-0.5,3.27422,0
1.64209,2.4033,-0.5,3.28417,0
1.64703,2.41955,-0.5,3.29405,0
1.65194,2.43575,-0.5,3.30387,0
1.65681,2.45189,-0.5,3.31363,0
1.66166,2.46797,-0.5,3.32332,0
1.66648,2.484,-0.5,3.33295,0
1.67126,2.49997,-0.5,3.34252,0
1.67602,2.51589,-0.5,3.35204,0
1.68074,2.53175,-0.5,3.36149,0
1.68544,2.54756,-0.5,3.37088,0
1.69011,2.56332,-0.5,3.38021,0
1.69475,2.57902,-0.5,3.38949,0
1.69936,2.59466,-0.5,3.39871,0
1.70394,2.61026,-0.5,3.40788,0
1.70849,2.6258,-0.5,3.41698,0
1.71302,2.64129,-0.5,3.42604,0
1.71752,2.65673,-0.5,3.43504,0
1.72199,2.67212,-0.5,3.44399,0
1.72644,2.68745,-0.5,3.45288,0
1.73086,2.70274,-0.5,3.46172,0
1.73526,2.71798,-0.5,3.47052,0
1.73963,2.73316,-0.5,3.47926,0
1.74397,2.7483,-0.5,3.48794,0
1.74829,2.76338,-0.5,3.49658,0
1.75259,2.77842,-0.5,3.50518,0
1.75686,2.79341,-0.5,3.51372,0
1.76111,2.80835,-0.5,3.52221,0
1.76533,2.82324,-0.5,3.53066,0
1.76953,2.83809,-0.5,3.53906,0
1.77371,2.85289,-0.5,3.54741,0
1.77786,2.86764,-0.5,3.55572,0
1.78199,2.88235,-0.5,3.56398,0
1.7861,2.89701,-0.5,3.5722,0
1.79019,2.91162,-0.5,3.58037,0
1.79425,2.92619,-0.5,3.5885,0
1.79829,2.94071,-0.5,3.59659,0
1.80231,2.95519,-0.5,3.60463,0
1.80631,2.96963,-0.5,3.61263,0
1.81029,2.98402,-0.5,3.62059,0
1.81425,2.99837,-0.5,3.62851,0
1.81819,3.01268,-0.5,3.63638,0
1.82211,3.02694,-0.5,3.64422,0
1.82601,3.04116,-0.5,3.65201,0
1.82989,3.05534,-0.5,3.65977,0
1.83374,3.06947,-0.5,3.66749,0
1.83758,3.08357,-0.5,3.67517,0
1.8414,3.09762,-0.5,3.68281,0
1.8452,3.11164,-0.5,3.69041,0
1.84899,3.12561,-0.5,3.69797,0
1.85275,3.13955,-0.5,3.7055,0
1.8565,3.15344,-0.5,3.713,0
1.86023,3.1673,-0.5,3.72045,0
1.86394,3.18111,-0.5,3.72787,0
1.86763,3.19489,-0.5,3.73526,0
1.8713,3.20863,-0.5,3.74261,0
1.87496,3.22233,-0.5,3.74992,0
1.8786,3.236,-0.5,3.7572,0
1.88223,3.24963,-0.5,3.76445,0
1.88583,3.26322,-0.5,3.77166,0
1.88942,3.27678,-0.5,3.77885,0
1.893,3.2903,-0.5,3.786,0
1.89656,3.30378,-0.5,3.79311,0
1.9001,3.31723,-0.5,3.8002,0
1.90363,3.33065,-0.5,3.80725,0
1.90714,3.34403,-0.5,3.81427,0
1.91063,3.35737,-0.5,3.82126,0
1.91411,3.37069,-0.5,3.82823,0
1.91758,3.38397,-0.5,3.83516,0
1.92103,3.39721,-0.5,3.84206,0
1.92447,3.41043,-0.5,3.84893,0
1.92789,3.42361,-0.5,3.85577,0
1.93129,3.43676,-0.5,3.86259,0
1.93469,3.44988,-0.5,3.86938,0
1.93807,3.46296,-0.5,3.87613,0
1.94143,3.47602,-0.5,3.88287,0
1.94478,3.48905,-0.5,3.88957,0
1.94812,3.50204,-0.5,3.89625,0
1.95145,3.51501,-0.5,3.9029,0
1.95476,3.52795,-0.5,3.90952,0
1.95806,3.54085,-0.5,3.91612,0
1.96135,3.55373,-0.5,3.92269,0
1.96462,3.56659,-0.5,3.92924,0
1.96788,3.57941,-0.5,3.93576,0
1.97113,3.5922,-0.5,3.94226,0
1.97436,3.60497,-0.5,3.94873,0
1.97759,3.61772,-0.5,3.95518,0
1.9808,3.63043,-0.5,3.9616,0
1.984,3.64312,-0.5,3.968,0
1.98719,3.65579,-0.5,3.97438,0
1.99037,3.66842,-0.5,3.98074,0
1.99353,3.68104,-0.5,3.98707,0
1.99669,3.69363,-0.5,3.99338,0
1.99983,3.70619,-0.5,3.99967,0
2.00297,3.71873,-0.5,4.00593,0
2.0061,3.73125,-0.5,4,0
2.00922,3.74374,-0.5,4,0
2.01234,3.75622,-0.5,4,0
2.01545,3.76866,-0.5,4,0
2.01856,3.78109,-0.5,4,0
2.02166,3.7935,-0.5,4,0
2.02475,3.80588,-0.5,4,0
2.02784,3.81824,-0.5,4,0
2.03093,3.83059,-0.5,4,0
2.03401,3.84291,-0.5,4,0
2.03709,3.85521,-0.5,4,0
2.04016,3.86749,-0.5,4,0
2.04322,3.87976,-0.5,4,0
2.04628,3.892,-0.5,4,0
2.04934,3.90423,-0.5,4,0
2.05239,3.91643,-0.5,4,0
2.05544,3.92862,-0.5,4,0
2.05848,3.9408,-0.5,4,0
2.06152,3.95295,-0.5,4,0
2.06456,3.96509,-0.5,4,0
2.06759,3.97722,-0.5,4,0
2.07061,3.98932,-0.5,4,0
2.07364,4.00141,-0.5,4,0
2.07666,4.01349,-0.5,4,0
2.07967,4.02555,-0.5,4,0
2.08268,4.0376,-0.5,4,0
2.08569,4.04963,-0.5,4,0
2.0887,4.06165,-0.5,4,0
2.0917,4.07366,-0.5,4,0
2.0947,4.08565,-0.5,4,0
2.09769,4.09763,-0.5,4,0
2.10068,4.1096,-0.5,4,0
2.10367,4.12155,-0.5,4,0
2.10666,4.1335,-0.5,4,0
2.10964,4.14543,-0.5,4,0
2.11262,4.15735,-0.5,4,0
2.1156,4.16926,-0.5,4,0
2.11858,4.18117,-0.5,4,0
2.12155,4.19306,-0.5,4,0
2.12452,4.20494,-0.5,4,0
2.12749,4.21681,-0.5,4,0
2.13045,4.22868,-0.5,4,0
2.13342,4.24053,-0.5,4,0
2.13638,4.25238,-0.5,4,0
2.13934,4.26422,-0.5,4,0
2.1423,4.27606,-0.5,4,0
2.14525,4.28788,-0.5,4,0
2.14821,4.2997,-0.5,4,0
2.15116,4.31152,-0.5,4,0
2.15412,4.32333,-0.5,4,0
2.15707,4.33513,-0.5,4,0
2.16002,4.34693,-0.5,4,0
2.16296,4.35872,-0.5,4,0
2.16591,4.37051,-0.5,4,0
2.16886,4.38229,-0.5,4,0
2.1718,4.39407,-0.5,4,0
2.17475,4.40585,-0.5,4,0
2.17769,4.41763,-0.5,4,0
2.18063,4.4294,-0.5,4,0
2.18358,4.44117,-0.5,4,0
2.18652,4.45294,-0.5,4,0
2.18946,4.4647,-0.5,4,0
2.1924,4.47647,-0.5,4,0
2.19534,4.48823,-0.5,4,0
2.19828,4.5,-0.5,4,0
2.20372,4.52174,-0.49992,4,1.5708
2.20907,4.54316,-0.49968,4,1.5708
2.21435,4.56427,-0.499281,4,1.5708
2.21955,4.58506,-0.498721,4,1.5708
2.22468,4.60554,-0.498002,4,1.5708
2.22972,4.62572,-0.497123,4,1.5708
2.2347,4.64559,-0.496084,4,1.5708
2.2396,4.66515,-0.494885,4,1.5708
2.24443,4.68442,-0.493527,4,1.5708
2.24918,4.70338,-0.492008,4,1.5708
2.25387,4.72205,-0.49033,4,1.5708
2.25849,4.74043,-0.488492,4,1.5708
2.26304,4.75851,-0.486494,4,1.5708
2.26752,4.77631,-0.484336,4,1.5708
2.27193,4.79382,-0.482018,4,1.5708
2.27628,4.81104,-0.479541,4,1.5708
2.28057,4.82798,-0.476903,4,1.5708
2.28479,4.84464,-0.474106,4,1.5708
2.28895,4.86102,-0.471149,4,1.5708
2.29306,4.87713,-0.468032,4,1.5708
2.2971,4.89297,-0.464756,4,1.5708
2.30108,4.90853,-0.461319,4,1.5708
2.30501,4.92383,-0.457723,4,1.5708
2.30888,4.93886,-0.453967,4,1.5708
2.3127,4.95362,-0.450051,4,1.5708
2.31647,4.96813,-0.445975,4,1.5708
2.32019,4.98237,-0.441739,4,1.5708
2.32385,4.99636,-0.437344,4,1.5708
2.32747,5.0101,-0.432788,4,1.5708
2.33104,5.02358,-0.428073,4,1.5708
2.33457,5.03681,-0.423198,4,1.5708
2.33805,5.0498,-0.418163,4,1.5708
2.34149,5.06254,-0.412968,4,1.5708
2.34489,5.07504,-0.407614,4,1.5708
2.34825,5.0873,-0.402099,4,1.5708
2.35157,5.09932,-0.396425,4,1.5708
2.35486,5.1111,-0.390591,4,1.5708
2.35811,5.12265,-0.384597,4,1.5708
2.36133,5.13397,-0.378443,4,1.5708
2.36452,5.14506,-0.37213,4,1.5708
2.36768,5.15593,-0.365656,4,1.5708
2.37082,5.16657,-0.359023,4,1.5708
2.37393,5.17699,-0.35223,4,1.5708
2.37701,5.18719,-0.345277,4,1.5708
2.38008,5.19717,-0.338164,4,1.5708
2.38312,5.20694,-0.330891,4,1.5708
2.38615,5.21649,-0.323459,4,1.5708
2.38916,5.22584,-0.315867,4,1.5708
2.39216,5.23498,-0.308114,4,1.5708
2.39514,5.24391,-0.300202,4,1.5708
2.39811,5.25264,-0.292131,4,1.5708
2.40107,5.26117,-0.283899,4,1.5708
2.40403,5.2695,-0.275507,4,1.5708
2.40698,5.27763,-0.266956,4,1.5708
2.40993,5.28557,-0.258245,4,1.5708
2.41287,5.29332,-0.249374,4,1.5708
2.41582,5.30088,-0.240343,4,1.5708
2.41876,5.30826,-0.231152,4,1.5708
2.42171,5.31545,-0.221802,4,1.5708
2.42467,5.32246,-0.212292,4,1.5708
2.42762,5.32928,-0.202621,4,1.5708
2.43059,5.33593,-0.192791,4,1.5708
2.43357,5.34241,-0.182801,4,1.5708
2.43656,5.34871,-0.172652,4,1.5708
2.43955,5.35485,-0.162342,4,1.5708
2.44257,5.36081,-0.151873,4,1.5708
2.44559,5.36661,-0.141244,4,1.5708
2.44864,5.37224,-0.130454,4,1.5708
2.4517,5.37772,-0.119506,4,1.5708
2.45478,5.38303,-0.108397,4,1.5708
2.45787,5.38819,-0.0971282,4,1.5708
2.46099,5.3932,-0.0856998,4,1.5708
2.46413,5.39805,-0.0741116,4,1.5708
2.4673,5.40276,-0.0623635,4,1.5708
2.47049,5.40732,-0.0504556,4,1.5708
2.4737,5.41173,-0.0383877,4,1.5708
2.47694,5.416,-0.0261602,4,1.5708
2.4802,5.42013,-0.0137727,4,1.5708
2.48349,5.42412,-0.00122544,4,1.5708
2.48681,5.42798,0.0114816,4,1.5708
2.49016,5.4317,0.0243487,4,1.5708
2.49354,5.4353,0.0373754,4,1.5708
2.49695,5.43876,0.0505621,4,1.5708
2.50039,5.4421,0.0639086,4,1.5708
2.50386,5.44532,0.0774149,4,1.5708
2.50736,5.44841,0.091081,4,1.5708
2.5109,5.45139,0.104907,4,1.5708
2.51447,5.45425,0.118893,4,1.5708
2.51807,5.45699,0.133038,4,1.5708
2.5217,5.45962,0.147344,4,1.5708
2.52537,5.46215,0.161809,4,1.5708
2.52908,5.46456,0.176435,4,1.5708
2.53282,5.46687,0.19122,4,1.5708
2.5366,5.46908,0.206164,4,1.5708
2.54041,5.47119,0.221269,4,1.5708
2.54426,5.4732,0.236534,4,1.5708
2.54815,5.47511,0.251958,4,1.5708
2.55207,5.47693,0.267542,4,1.5708
2.55603,5.47866,0.283286,4,1.5708
2.56003,5.4803,0.29919,4,1.5708
2.56406,5.48186,0.315254,4,1.5708
2.56813,5.48333,0.331477,4,1.5708
2.57224,5.48472,0.347861,4,1.5708
2.57639,5.48603,0.364404,4,1.5708
2.58058,5.48726,0.381107,4,1.5708
2.5848,5.48842,0.39797,4,1.5708
2.58907,5.4895,0.414993,4,1.5708
2.59337,5.49052,0.432175,4,1.5708
2.59771,5.49146,0.449518,4,1.5708
2.6021,5.49235,0.46702,4,1.5708
2.60652,5.49317,0.484682,4,1.5708
2.61098,5.49392,0.502504,4,1.5708
2.61547,5.49463,0.520486,4,1.5708
2.62001,5.49527,0.538628,4,1.5708
2.62459,5.49586,0.556929,4,1.5708
2.62921,5.4964,0.57539,4,1.5708
2.63386,5.49689,0.594011,4,1.5708
2.63856,5.49733,0.612792,4,1.5708
2.6433,5.49773,0.631733,4,1.5708
2.64807,5.49809,0.650834,4,1.5708
2.65289,5.49841,0.670094,4,1.5708
2.65774,5.49869,0.689515,4,1.5708
2.66264,5.49893,0.709095,4,1.5708
2.66758,5.49915,0.728835,4,1.5708
2.67255,5.49933,0.748735,4,1.5708
2.67757,5.49948,0.768794,4,1.5708
2.68262,5.49961,0.789014,4,1.5708
2.68772,5.49972,0.809393,4,1.5708
2.69285,5.4998,0.829932,4,1.5708
2.69803,5.49987,0.850631,4,1.5708
2.70324,5.49992,0.87149,4,1.5708
2.70849,5.49995,0.892509,4,1.5708
2.71379,5.49998,0.913687,4,1.5708
2.71912,5.49999,0.935026,4,1.5708
2.7245,5.5,0.956524,4,1.5708
2.72991,5.5,0.978182,4,1.5708
2.73537,5.5,1,4,1.5708
2.73685,5.5,1.00593,4,1.5708
2.73836,5.5,1.01197,4,1.5708
2.7399,5.5,1.01813,4,1.5708
2.74147,5.5,1.0244,4,1.5708
2.74306,5.5,1.03078,4,1.5708
2.74469,5.5,1.03728,4,1.5708
2.74634,5.5,1.04388,4,1.5708
2.74802,5.5,1.0506,4,1.5708
2.74973,5.5,1.05744,4,1.5708
2.75146,5.5,1.06438,4,1.5708
2.75322,5.5,1.07143,4,1.5708
2.75502,5.5,1.07859,4,1.5708
2.75683,5.5,1.08586,4,1.5708
2.75868,5.5,1.09325,4,1.5708
2.76055,5.5,1.10073,4,1.5708
2.76245,5.5,1.10833,4,1.5708
2.76438,5.5,1.11604,4,1.5708
2.76633,5.5,1.12385,4,1.5708
2.76831,5.5,1.13177,4,1.5708
2.77032,5.5,1.1398,4,1.5708
2.77235,5.5,1.14793,4,1.5708
2.77441,5.5,1.15616,4,1.5708
2.77649,5.5,1.16451,4,1.5708
2.7786,5.5,1.17295,4,1.5708
2.78074,5.5,1.1815,4,1.5708
2.78291,5.5,1.19016,4,1.5708
2.7851,5.5,1.19891,4,1.5708
2.78731,5.5,1.20777,4,1.5708
2.78955,5.5,1.21674,4,1.5708
2.79182,5.5,1.2258,4,1.5708
2.79411,5.5,1.23497,4,1.5708
2.79643,5.5,1.24423,4,1.5708
2.79877,5.5,1.2536,4,1.5708
2.80113,5.5,1.26307,4,1.5708
2.80353,5.5,1.27264,4,1.5708
2.80594,5.5,1.2823,4,1.5708
2.80838,5.5,1.29207,4,1.5708
2.81085,5.5,1.30193,4,1.5708
2.81334,5.5,1.31189,4,1.5708
2.81585,5.5,1.32195,4,1.5708
2.81839,5.5,1.3321,4,1.5708
2.82096,5.5,1.34236,4,1.5708
2.82354,5.5,1.3527,4,1.5708
2.82615,5.5,1.36315,4,1.5708
2.82879,5.5,1.37368,4,1.5708
2.83145,5.5,1.38432,4,1.5708
2.83413,5.5,1.39504,4,1.5708
2.83683,5.5,1.40586,4,1.5708
2.83956,5.5,1.41678,4,1.5708
2.84231,5.5,1.42779,4,1.5708
2.84509,5.5,1.43888,4,1.5708
2.84789,5.5,1.45008,4,1.5708
2.85071,5.5,1.46136,4,1.5708
2.85355,5.5,1.47273,4,1.5708
2.85642,5.5,1.4842,4,1.5708
2.8593,5.5,1.49575,4,1.5708
2.86222,5.5,1.5074,4,1.5708
2.86515,5.5,1.51913,4,1.5708
2.8681,5.5,1.53095,4,1.5708
2.87108,5.5,1.54286,4,1.5708
2.87408,5.5,1.55486,4,1.5708
2.8771,5.5,1.56695,4,1.5708
2.88015,5.5,1.57912,4,1.5708
2.88321,5.5,1.59138,4,1.5708
2.8863,5.5,1.60373,4,1.5708
2.88941,5.5,1.61616,4,1.5708
2.89254,5.5,1.62867,4,1.5708
2.89569,5.5,1.64128,4,1.5708
2.89886,5.5,1.65396,4,1.5708
2.90205,5.5,1.66673,4,1.5708
2.90526,5.5,1.67958,4,1.5708
2.9085,5.5,1.69252,4,1.5708
2.91175,5.5,1.70554,4,1.5708
2.91503,5.5,1.71864,4,1.5708
2.91832,5.5,1.73182,4,1.5708
2.92164,5.5,1.74509,4,1.5708
2.92497,5.5,1.75843,4,1.5708
2.92833,5.5,1.77185,4,1.5708
2.93171,5.5,1.78536,4,1.5708
2.9351,5.5,1.79894,4,1.5708
2.93852,5.5,1.8126,4,1.5708
2.94195,5.5,1.82635,4,1.5708
2.94541,5.5,1.84016,4,1.5708
2.94888,5.5,1.85406,4,1.5708
2.95237,5.5,1.86803,4,1.5708
2.95589,5.5,1.88208,4,1.5708
2.95942,5.5,1.89621,4,1.5708
2.96297,5.5,1.91041,4,1.5708
2.96654,5.5,1.92469,4,1.5708
2.97013,5.5,1.93904,4,1.5708
2.97373,5.5,1.95347,4,1.5708
2.97736,5.5,1.96797,4,1.5708
2.981,5.5,1.98254,4,1.5708
2.98466,5.5,1.99719,4,1.5708
2.98834,5.5,2.01191,4,1.5708
2.99204,5.5,2.0267,4,1.5708
2.99576,5.5,2.04157,4,1.5708
2.99949,5.5,2.0565,4,1.5708
3.00324,5.5,2.07151,4,1.5708
3.00701,5.5,2.08659,4,1.5708
3.0108,5.5,2.10173,4,1.5708
3.0146,5.5,2.11695,4,1.5708
3.01842,5.5,2.13223,4,1.5708
3.02226,5.5,2.14759,4,1.5708
3.02612,5.5,2.16301,4,1.5708
3.02999,5.5,2.1785,4,1.5708
3.03388,5.5,2.19405,4,1.5708
3.03779,5.5,2.20968,4,1.5708
3.04171,5.5,2.22537,4,1.5708
3.04565,5.5,2.24112,4,1.5708
3.0496,5.5,2.25694,4,1.5708
3.05357,5.5,2.27283,4,1.5708
3.05756,5.5,2.28878,4,1.5708
3.06156,5.5,2.30479,4,1.5708
3.06558,5.5,2.32087,4,1.5708
3.06962,5.5,2.33701,4,1.5708
3.07367,5.5,2.35322,4,1.5708
3.07774,5.5,2.36948,4,1.5708
3.08182,5.5,2.38581,4,1.5708
3.08592,5.5,2.4022,4,1.5708
3.09003,5.5,2.41865,4,1.5708
3.09416,5.5,2.43516,4,1.5708
3.0983,5.5,2.45173,4,1.5708
3.10246,5.5,2.46836,4,1.5708
3.10663,5.5,2.48505,4,1.5708
3.11082,5.5,2.5018,4,1.5708
3.11502,5.5,2.51861,4,1.5708
3.11923,5.5,2.53547,4,1.5708
3.12346,5.5,2.55239,4,1.5708
3.12771,5.5,2.56937,4,1.5708
3.13197,5.5,2.58641,4,1.5708
3.13624,5.5,2.6035,4,1.5708
3.14053,5.5,2.62064,4,1.5708
3.14483,5.5,2.63785,4,1.5708
3.14914,5.5,2.6551,4,1.5708
3.15347,5.5,2.67241,4,1.5708
3.15781,5.5,2.68978,4,1.5708
3.16216,5.5,2.70719,4,1.5708
3.16653,5.5,2.72466,4,1.5708
3.17091,5.5,2.74219,4,1.5708
3.17531,5.5,2.75976,4,1.5708
3.17971,5.5,2.77739,4,1.5708
3.18413,5.5,2.79506,4,1.5708
3.18856,5.5,2.81279,4,1.5708
3.19301,5.5,2.83057,4,1.5708
3.19747,5.5,2.8484,4,1.5708
3.20193,5.5,2.86627,4,1.5708
3.20642,5.5,2.8842,4,1.5708
3.21091,5.5,2.90217,4,1.5708
3.21541,5.5,2.92019,4,1.5708
3.21993,5.5,2.93826,4,1.5708
3.22446,5.5,2.95638,4,1.5708
3.229,5.5,2.97454,4,1.5708
3.23355,5.5,2.99275,4,1.5708
3.23812,5.5,3.01101,4,1.5708
3.24269,5.5,3.0293,4,1.5708
3.24728,5.5,3.04765,4,1.5708
3.25188,5.5,3.06604,4,1.5708
3.25648,5.5,3.08447,4,1.5708
3.2611,5.5,3.10295,4,1.5708
3.26573,5.5,3.12147,4,1.5708
3.27037,5.5,3.14003,4,1.5708
3.27502,5.5,3.15863,4,1.5708
3.27968,5.5,3.17728,4,1.5708
3.28436,5.5,3.19596,4,1.5708
3.28904,5.5,3.21469,4,1.5708
3.29373,5.5,3.23345,4,1.5708
3.29843,5.5,3.25226,4,1.5708
3.30314,5.5,3.27111,4,1.5708
3.30786,5.5,3.28999,4,1.5708
3.31259,5.5,3.30892,4,1.5708
3.31733,5.5,3.32788,4,1.5708
3.32208,5.5,3.34688,4,1.5708
3.32684,5.5,3.36591,4,1.5708
3.33161,5.5,3.38499,4,1.5708
3.33639,5.5,3.40409,4,1.5708
3.34118,5.5,3.42324,4,1.5708
3.34597,5.5,3.44242,4,1.5708
3.35077,5.5,3.46163,4,1.5708
3.35559,5.5,3.48088,4,1.5708
3.36041,5.5,3.50017,4,1.5708
3.36524,5.5,3.51948,4,1.5708
3.37007,5.5,3.53883,4,1.5708
3.37492,5.5,3.55822,4,1.5708
3.37977,5.5,3.57763,4,1.5708
3.38463,5.5,3.59708,4,1.5708
3.3895,5.5,3.61655,4,1.5708
3.39438,5.5,3.63606,4,1.5708
3.39927,5.5,3.6556,4,1.5708
3.40416,5.5,3.67517,4,1.5708
3.40906,5.5,3.69477,4,1.5708
3.41396,5.5,3.71439,4,1.5708
3.41888,5.5,3.73405,4,1.5708
3.4238,5.5,3.75373,4,1.5708
3.42873,5.5,3.77345,4,1.5708
3.43366,5.5,3.79318,4,1.5708
3.4386,5.5,3.81295,4,1.5708
3.44355,5.5,3.83274,4,1.5708
3.4485,5.5,3.85256,4,1.5708
3.45347,5.5,3.8724,4,1.5708
3.45843,5.5,3.89227,4,1.5708
3.46341,5.5,3.91216,4,1.5708
3.46838,5.5,3.93208,4,1.5708
3.47337,5.5,3.95202,4,1.5708
3.47836,5.5,3.97198,4,1.5708
3.48336,5.5,3.99197,4,1.5708
